Time,y,ydot,x,xdot,normal force on latch x,normal force on load y,frictional force on latch x,frictional force on load y,spring force,unlatching motor force
0,-0.000971550483036125,0,0,0,0,3.2840754398683,-0,-0,3.2840754398683,0.00125
0.000155074408256553,-0.000971550483033634,6.41351790298096e-11,4.99067655216437e-09,6.42549946479334e-05,3.27795165754552e-06,3.28407543875218,-0,-0,3.28407543985514,0.00123393625133802
0.000310148816513106,-0.000971550482996511,5.09610251791895e-10,1.99033508828399e-08,0.000128021219840733,1.30728211429267e-05,3.28407543528113,-0,-0,3.28407543965898,0.00121799469503982
0.00046522322476966,-0.000971550482836418,1.71281442568641e-09,4.46886300374417e-08,0.000191638726023033,2.93521663734602e-05,3.28407542899565,-0,-0,3.28407543881303,0.00120209031849424
0.000620297633026213,-0.00097155048240649,4.05384391134373e-09,7.93495023756784e-08,0.000255442302060095,5.21179500600437e-05,3.28407541907002,-0,-0,3.28407543654126,0.00118613942448498
0.000775372041282766,-0.000971550481499999,7.92633231590312e-09,1.23940524459696e-07,0.000319763545782215,8.14060056199819e-05,3.28407540430588,-0,-0,3.2840754317513,0.00117005911355445
0.000930446449539319,-0.000971550479847486,1.37472892298172e-08,1.78567599053999e-07,0.000384932353178276,0.000117285891329887,3.28407538311647,-0,-0,3.28407542301929,0.00115376691170543
0.00108552085779587,-0.000971550477112366,2.19671530280661e-08,2.43387724992159e-07,0.000451278983004344,0.000159860725987703,3.28407535350146,-0,-0,3.28407540856672,0.00113718025424891
0.00124059526605243,-0.000971550472884937,3.30802749407214e-08,3.18609280833623e-07,0.000519135456239818,0.000209267375161321,3.28407531301227,-0,-0,3.28407538622866,0.00112021613594005
0.00139566967430898,-0.000971550466674717,4.76360624539051e-08,4.04492373680885e-07,0.000588837582579589,0.000265676680217592,3.28407525870713,-0,-0,3.28407535341339,0.0011027906043551
0.00155074408256553,-0.000971550457900984,6.62509801443871e-08,5.01349582782167e-07,0.000660726388198942,0.000329293946630485,3.28407518709546,-0,-0,3.28407530705232,0.00108481840295026
0.00170581849082209,-0.000971550445881382,8.96216900765776e-08,6.09546901307759e-07,0.000735150069816806,0.00040035956242558,3.28407509407047,-0,-0,3.28407524353984,0.0010662124825458
0.00186089289907864,-0.000971550429818374,1.1853953249106e-07,7.29504974844636e-07,0.000812465543875309,0.000479149811479961,3.284074974829,-0,-0,3.2840751586617,0.00104688361403117
0.00201596730733519,-0.000971550408783335,1.53906676026219e-07,8.61700586466845e-07,0.000893040321416451,0.000565977848735039,3.28407482377714,-0,-0,3.28407504751097,0.00102673991964589
0.00217104171559175,-0.000971550381697983,1.9675421048581e-07,1.00666846955346e-06,0.000977254242329382,0.000661194890627025,3.28407463441994,-0,-0,3.28407490438994,0.00100568643941765
0.0023261161238483,-0.000971550347312859,2.48262506801222e-07,1.16500328241163e-06,0.00106550129004059,0.000765191511729074,3.28407439923353,-0,-0,3.28407472269637,0.000983624677489853
0.00248119053210485,-0.000971550304182386,3.09784307119454e-07,1.33736209010296e-06,0.0011581915560893,0.000878399274452289,3.28407410951684,-0,-0,3.28407449479174,0.000960452110977674
0.0026362649403614,-0.000971550250636222,3.82870772860975e-07,1.52446678551548e-06,0.00125575302362422,0.0010012923187436,3.28407375522118,-0,-0,3.28407421184982,0.000936061744093946
0.00279133934861796,-0.000971550184746138,4.69301311719742e-07,1.72710734277892e-06,0.00135863380375379,0.00113438949835653,3.28407332475318,-0,-0,3.28407386368175,0.000910341549061552
0.00294641375687451,-0.000971550104288204,5.7111718653861e-07,1.9461446673969e-06,0.00146730392874808,0.00127825625208881,3.28407280474987,-0,-0,3.2840734385361,0.000883174017812979
0.00310148816513106,-0.000971550006699057,6.90660287636513e-07,2.18251470923209e-06,0.00158225788563437,0.00143350730429321,3.28407217981833,-0,-0,3.2840729228679,0.000854435528591408
0.00325656257338762,-0.00097154988902622,8.3061671739537e-07,2.43723176769296e-06,0.00170401647829887,0.00160080883458505,3.28407143224028,-0,-0,3.28407230107609,0.000823995880425282
0.00341163698164417,-0.000971549747870581,9.94067337821868e-07,2.71139353585577e-06,0.00183312967762776,0.00178088178942235,3.28407054162958,-0,-0,3.28407155519953,0.00079171758059306
0.00356671138990072,-0.000971549579321268,1.18454446054474e-06,3.00618491706555e-06,0.00197017861363454,0.00197450438708469,3.28406948454502,-0,-0,3.28407066457298,0.000757455346591366
0.00372178579815728,-0.000971549378880141,1.40609783240474e-06,3.32288408132227e-06,0.00211577877452612,0.00218251609334174,3.28406823404085,-0,-0,3.28406960542801,0.00072105530636847
0.00387686020641383,-0.000971549141376582,1.66336849053319e-06,3.66286685924289e-06,0.00227058218073229,0.00240582050469218,3.28406675916013,-0,-0,3.28406835044282,0.000682354454816928
0.00403193461467038,-0.00097154886086848,1.96167494713068e-06,4.02761391128263e-06,0.00243528098013849,0.00264539005377538,3.28406502434552,-0,-0,3.28406686821904,0.000641179754965378
0.00418700902292694,-0.000971548530530832,2.30710948991654e-06,4.4187157768476e-06,0.00261060985306661,0.00290226932147329,3.28406298877701,-0,-0,3.28406512269311,0.000597347536733347
0.00434208343118349,-0.000971548142526057,2.70665076078407e-06,4.83788127275349e-06,0.0027973500600759,0.00317758054791611,3.28406060560033,-0,-0,3.28406307245101,0.000550662484981026
0.00449715783944004,-0.000971547687858402,3.16828938582824e-06,5.28694329573204e-06,0.00299633213127092,0.00347252743723782,3.28405782106156,-0,-0,3.28406066995899,0.000500916967182269
0.0046522322476966,-0.000971547156204228,3.70117500608651e-06,5.76786857557006e-06,0.00320844042730576,0.00378840155566181,3.28405457349759,-0,-0,3.28405786066682,0.00044788989317356
0.00480730665595315,-0.000971546535721765,4.3157802295634e-06,6.28276436098855e-06,0.00343461617724597,0.00412658671317604,3.28405079220555,-0,-0,3.28405458200261,0.000391345955688507
0.0049623810642097,-0.000971545812829164,5.02409258935887e-06,6.83388965388742e-06,0.00367586261346092,0.00448856633037672,3.2840463961228,-0,-0,3.28405076220002,0.00033103434663477
0.00511745547246626,-0.000971544971955924,5.83982858132553e-06,7.42366295291786e-06,0.0039332484392206,0.00487592850990077,3.28404129234995,-0,-0,3.28404631898501,0.000266687890194849
0.00527252988072281,-0.000971543995252838,6.77868415615387e-06,8.05467508798363e-06,0.00420791359451599,0.00529037444825022,3.28403537442626,-0,-0,3.28404115804318,0.000198021601371002
0.00542760428897936,-0.000971542862267158,7.8586142483749e-06,8.72969825327531e-06,0.00450107325742313,0.00573372434672548,3.28402852039962,-0,-0,3.28403517130361,0.000124731685644217
0.00558267869723591,-0.000971541549564205,9.10015910022433e-06,9.45170034440588e-06,0.00481402420169151,0.00620792680106728,3.28402059057743,-0,-0,3.28402823493959,4.64939495771227e-05
0.00573775310549247,-0.000971540030281919,1.05276803158681e-05,1.02238658442659e-05,0.00514857025100814,0.00671507243842317,3.28401140161136,-0,-0,3.28402020701519,0
0.00589282751374902,-0.000971538272983035,1.21760205048959e-05,1.1049904154136e-05,0.00550954587527668,0.00725759641637674,3.2840007442656,-0,-0,3.28401092142054,0
0.00604790192200557,-0.000971536240634588,1.40812339445813e-05,1.19341448177189e-05,0.00589954037324777,0.00783834100147411,3.28398841887539,-0,-0,3.28400018248006,0
0.00620297633026213,-0.000971533890359667,1.62835142835932e-05,1.28812456410246e-05,0.00632060776572579,0.00846036365672996,3.28397416542148,-0,-0,3.28398776364154,0
0.00635805073851868,-0.000971531172577173,1.88293191356221e-05,1.38961943217742e-05,0.00677496513759865,0.00912693807120555,3.28395768323124,-0,-0,3.28397340293161,0
0.00651312514677524,-0.000971528029949253,2.17723561835027e-05,1.49843373086149e-05,0.00726500543993503,0.00984157300508887,3.28393862459703,-0,-0,3.28395679739536,0
0.00666819955503179,-0.000971524396180865,2.51747074987655e-05,1.61514046473302e-05,0.0077933086015329,0.0106080284725737,3.28391658749833,-0,-0,3.28393759675507,0
0.00682327396328834,-0.000971520194609564,2.91081498558521e-05,1.74035441280985e-05,0.00836265685701475,0.0114303380000828,3.28389110705265,-0,-0,3.28391539596115,0
0.00697834837154489,-0.000971515336603343,3.36556545874382e-05,1.87473489471705e-05,0.00897604725527801,0.0123128265840068,3.2838616458032,-0,-0,3.28388972672964,0
0.00713342277980145,-0.000971509719672768,3.89131543852645e-05,2.01898977688288e-05,0.00963670980026747,0.0132601367408754,3.2838275822756,-0,-0,3.28386004757123,0
0.007288497188058,-0.000971503225331526,4.49915454885104e-05,2.17387859068029e-05,0.0103481216572904,0.0142772486619674,3.28378819801054,-0,-0,3.28382573249243,0
0.00744357159631455,-0.000971495716571028,5.20190504870742e-05,2.3402171942078e-05,0.01111402839786,0.0153695104258943,3.2837426622587,-0,-0,3.28378605765945,0
0.00759864600457111,-0.00097148703500167,6.0143892961155e-05,2.51888133681041e-05,0.0119384603156721,0.0165426609074461,3.28369001465735,-0,-0,3.28374018630343,0
0.00775372041282766,-0.000971476997477325,6.95374549661611e-05,2.71081203309277e-05,0.0128257570273288,0.0178028644464445,3.2836291447779,-0,-0,3.28368715089885,0
0.00790879482108421,-0.000971465392272636,8.03978526908752e-05,2.91701970245645e-05,0.0137805864664265,0.0191567372587836,3.28355876896751,-0,-0,3.28362583298376,0
0.00806386922934077,-0.000971451974575889,9.29541515580907e-05,3.13859028616334e-05,0.0148079729638188,0.0206113866432821,3.28347740304852,-0,-0,3.28355493937022,0
0.00821894363759732,-0.000971436461371607,0.000107471151659527,3.3766901608618e-05,0.0159133198090314,0.0221744420518239,3.28338333132794,-0,-0,3.28347297513888,0
0.00837401804585387,-0.00097141852543027,0.000124255007195621,3.63257298032885e-05,0.0171024406928391,0.023854098527418,3.28327457020729,-0,-0,3.28337821192738,0
0.00852909245411042,-0.000971397788450261,0.000143659637643634,3.90758562669931e-05,0.0183815870153053,0.0256591539336058,3.28314882667107,-0,-0,3.28326865175499,0
0.00868416686236698,-0.00097137381305149,0.000166094211127196,4.20317574468253e-05,0.0197574824898732,0.027599056125102,3.28300344983816,-0,-0,3.2831419848007,0
0.00883924127062353,-0.000971346093579264,0.000192031737907012,4.52089901851459e-05,0.0212373564713664,0.029683947869783,3.28283537533417,-0,-0,3.28299554092287,0
0.00899431567888009,-0.000971314045444501,0.000222019029693818,4.86242739123217e-05,0.0228289816075407,0.0319247172602289,3.28264106083514,-0,-0,3.28282623348284,0
0.00914939008713664,-0.000971276992792276,0.000256688217150272,5.22955795605776e-05,0.0245407144315447,0.0343330516710459,3.28241641153848,-0,-0,3.28263049438599,0
0.00930446449539319,-0.000971234154310302,0.00029677000144185,5.62422189672981e-05,0.0263815361053866,0.0369214909643606,3.28215669443881,-0,-0,3.28240419936188,0
0.00945953890364975,-0.000971184626700874,0.000343109081111089,6.04849526879042e-05,0.0283611014094004,0.0397034914376151,3.28185643855018,-0,-0,3.28214258098857,0
0.0096146133119063,-0.000971127365782491,0.00039668178540329,6.50460875697233e-05,0.0304897828325646,0.0426934813994208,3.28150932090586,-0,-0,3.28184012931277,0
0.00976968772016285,-0.000971061164355712,0.000458616715714138,6.99496059414287e-05,0.0327787288861132,0.0459069354181307,3.28110803314277,-0,-0,3.28149047553411,0
0.00992476212841941,-0.000970984627024624,0.000530218214663111,7.52212730680628e-05,0.035239912035959,0.0493604317662092,3.28064412989542,-0,-0,3.28108625981794,0
0.010079836536676,-0.000970896140588547,0.000612993945829409,8.08887897779367e-05,0.0378861969575922,0.0530717362947588,3.28010785069676,-0,-0,3.28061897599064,0
0.0102349109449325,-0.000970793840477385,0.000708686136373199,8.69819123694277e-05,0.040731393036372,0.0570598609303283,3.27948791837241,-0,-0,3.28007879571311,0
0.0103899853531891,-0.000970675571197834,0.000819308364423508,9.35326302002907e-05,0.0437903327508218,0.0613451550565267,3.27877130177506,-0,-0,3.27945436152439,0
0.0105450597614456,-0.00097053884156659,0.000947187151420916,0.000100575301525229,0.047078929632789,0.0659493634931979,3.27794294777522,-0,-0,3.27873255302379,0
0.0107001341697022,-0.000970380771948648,0.00109501093299918,0.000108146856869494,0.0506142663505434,0.0708957211319716,3.27698546594341,-0,-0,3.27789821172966,0
0.0108552085779587,-0.000970198034524418,0.00126588541780638,0.000116286955416727,0.0544146591636744,0.0762090075057064,3.2758787725124,-0,-0,3.27693383032208,0
0.0110102829862153,-0.000969986783041874,0.00146339860876171,0.00012503821329835,0.0584997540708538,0.0819156367635535,3.2745996726621,-0,-0,3.2758191879662,0
0.0111653573944718,-0.00096974257307083,0.00169169446138205,0.00013444638751006,0.0628905992360903,0.0880437043174539,3.27312138798765,-0,-0,3.27453093762327,0
0.0113204318027284,-0.000969460268683927,0.00195555894042439,0.000144560625780144,0.0676097458212618,0.0946230587431339,3.27141300536064,-0,-0,3.27304212455984,0
0.0114755062109849,-0.000969133935992659,0.0022605179133856,0.000155433685972653,0.0726813293293146,0.101685331813603,3.2694388510446,-0,-0,3.27132163927273,0
0.0116305806192415,-0.000968756719435664,0.00261295066504848,0.000167122203460682,0.0781311704154052,0.109263972549444,3.2671577667795,-0,-0,3.26933358446032,0
0.011785655027498,-0.000968320699785705,0.00302021966941624,0.000179686952793905,0.083986864140824,0.117394243895623,3.26452228386492,-0,-0,3.26703655228728,0
0.0119407294357546,-0.000967816730458961,0.00349081976780491,0.000193193128406076,0.0902778744027602,0.126113190229788,3.26147767727793,-0,-0,3.26438279618409,0
0.0120958038440111,-0.000967234248522332,0.00403454949202479,0.000207710652730057,0.0970356268850251,0.135459571333687,3.25796088210693,-0,-0,3.26131728118805,0
0.0122508782522677,-0.000966561058542485,0.00466270621934048,0.000223314465674815,0.104293587993532,0.145473721210947,3.25389926582303,-0,-0,3.25777660702045,0
0.0124059526605243,-0.000965783081818696,0.00538831101064441,0.00024008487927707,0.112087352534531,0.156197371176548,3.24920921851891,-0,-0,3.25368776991759,0
0.0125610270687808,-0.000964884071671352,0.00622636237125786,0.000258107870099397,0.120454693425053,0.167673337571875,3.24379457353932,-0,-0,3.24896677373115,0
0.0127161014770374,-0.000963845282131943,0.00719412891278563,0.000277475474449264,0.129435628235646,0.179945158308135,3.23754479464251,-0,-0,3.24351703301079,0
0.0128711758852939,-0.000962645094196998,0.00831147654954076,0.000298286074835711,0.139072418449473,0.193056517053603,3.23033296960455,-0,-0,3.23722760213558,0
0.0130262502935505,-0.000961258580581904,0.00960124520491271,0.000320644821081033,0.149409589039857,0.207050578396895,3.22201351684216,-0,-0,3.22997114650963,0
0.013181324701807,-0.000959657017459262,0.0110896656589525,0.00034466389605701,0.160493844498408,0.221969012856344,3.21241968228969,-0,-0,3.22160172145913,0
0.0133363991100636,-0.000957807316913866,0.012806836979959,0.000370462935538127,0.172374000975077,0.237850861669919,3.20136070487755,-0,-0,3.21195224897558,0
0.0134914735183201,-0.000955671393457485,0.0147872484619196,0.000398169248311014,0.18510076953276,0.254730967448679,3.18861877650863,-0,-0,3.2008317983569,0
0.0136465479265767,-0.000953205431301602,0.0170703715217327,0.000427918188935793,0.198726539228108,0.272638127616344,3.17394565747142,-0,-0,3.18802254402231,0
0.0138016223348332,-0.000950359070423906,0.019701296678338,0.000459853291989623,0.213304953543742,0.291592659235695,3.15705913410027,-0,-0,3.17327655577814,0
0.0139566967430898,-0.000947074473193063,0.0227314441450385,0.000494126525672105,0.228890455780963,0.311603512443279,3.13763918961824,-0,-0,3.15631230155155,0
0.0141117711513463,-0.000943285293338133,0.0262193107011209,0.000530898272771021,0.245537547211252,0.332664607869446,3.11532415139978,-0,-0,3.1368110770094,0
0.0142668455596029,-0.000938915508220113,0.0302312818954669,0.000570337362075182,0.263299973558851,0.354750493107699,3.08970674079329,-0,-0,3.11441328881228,0
0.0144219199678594,-0.000933878140129149,0.0348424515185666,0.000612620782907064,0.282229505814423,0.37781100596152,3.06033039744492,-0,-0,3.0887148870034,0
0.014576994376116,-0.000928073831447777,0.040137476028044,0.000657933352741864,0.302374604130104,0.401765001576324,3.02668591368553,-0,-0,3.05926396880124,0
0.0147320687843726,-0.000921389307928504,0.0462113694991383,0.000706466989736981,0.323778512260625,0.426492869569364,2.98820892554393,-0,-0,3.02555797955706,0
0.0148871431926291,-0.00091369570298422,0.0531702638556912,0.000758419821038582,0.346477185944242,0.451827909103629,2.9442784580152,-0,-0,2.9870416764343,0
0.0150422176008857,-0.000904846797433018,0.061131980316337,0.000813994763102341,0.370496453855504,0.477546373471892,2.89421734757069,-0,-0,2.94310649149872,0
0.0151972920091422,-0.000894677159794258,0.0702264297966592,0.000873397804320813,0.395848957067473,0.503356369388209,2.83729493913517,-0,-0,2.89309163719312,0
0.0153523664173988,-0.000883000281822992,0.0805956019302414,0.000936835564011338,0.42253013024877,0.528885611981201,2.77273326540249,-0,-0,2.83628789386159,0
0.0155074408256553,-0.000869606712863294,0.0923931425854115,0.00100451240383146,0.450513906953919,0.553668513450312,2.6997172968901,-0,-0,2.77194459352474,0
0.0156625152339119,-0.000854262355470805,0.105783173021523,0.00107662656979355,0.479747360233779,0.577132990949342,2.61741088873783,-0,-0,2.69928108336797,0
0.0158175896421684,-0.000836706954849496,0.120938316093027,0.00115336572897432,0.510145061925366,0.598588008830364,2.52497906947585,-0,-0,2.61750324295535,0
0.015972664050425,-0.000816653045302726,0.138036474145554,0.00123490127585877,0.541582463022215,0.617212903153987,2.42161853501672,-0,-0,2.52582656089913,0
0.0161277384586815,-0.000793785424320288,0.157256287891548,0.00132138191718296,0.573889165839298,0.632050302520209,2.3065966120983,-0,-0,2.42350604665849,0
0.0162828128669381,-0.00076776155972731,0.178770734605158,0.00141292579699883,0.60684161852145,0.642004595257537,2.17930025596623,-0,-0,2.30987430573246,0
0.0164378872751946,-0.000738213015458197,0.202738827796011,0.00150961197067445,0.64015627399315,0.645848642918751,2.03929392957916,-0,-0,2.18438690925343,0
0.0165929616834512,-0.000704748519638451,0.22929483021693,0.00161147024369173,0.673483016167597,0.64224149570524,1.88638679392091,-0,-0,2.04667558243475,0
0.0167480360917077,-0.000666958638120839,0.258535179440636,0.00171847090669698,0.706400198683086,0.629760173531749,1.72070475154686,-0,-0,1.89660561364526,0
0.0169031104999643,-0.00062442304951519,0.290502611667884,0.0018305127369419,0.7384114871433,0.606948208258906,1.54276592043791,-0,-0,1.73433676580961,0
0.0170581849082208,-0.000576719965406097,0.325168084341016,0.00194741213887772,0.768945673467419,0.572382695659842,1.35354980574807,-0,-0,1.56037952015176,0
0.0172132593164774,-0.000523439128297374,0.362410686085176,0.00206889094955285,0.797361063070525,0.524760464917221,1.15455635892987,-0,-0,1.37564463435392,0
0.017368333724734,-0.000464197375335909,0.401995912224812,0.00219456690513393,0.822953121888896,0.463001244057947,0.947841278104452,-0,-0,1.18147382337835,0
0.0175234081329905,-0.000398658280804292,0.443554808763785,0.00232394417896392,0.844970791635442,0.386363365156897,0.736021235854566,-0,-0,0.979648860013259,0
0.0176784825412471,-0.00032655417941787,0.486563051654479,0.00245640851742973,0.862634970300152,0.294563994836947,0.522236947654849,-0,-0,0.77236670067104,0
0.0178335569495036,-0.000247712051549101,0.530324673635306,0.00259122408138946,0.875167070467126,0.187893587059102,0.310070959020012,-0,-0,0.562181981824483,0
0.0179886313577602,-0.00016208084982133,0.573959761425374,0.00272753647914213,0.881819850241675,0.0673112282448784,0.103415572309592,-0,-0,0.351910626509283,0
0.0180688524928126,-0.000115144868832663,0.59613871353029,0.0027983254932183,0.88272684236572,-1.90265349548368e-13,-2.81733642534033e-13,0,0,0.244071947680341,0
0.0180688524928126,-0.000115144868832663,0.59613871353029,0.0027983254932183,0,0,0,0,0,0.244071947680341,0
