Time,y,ydot,x,xdot,normal force on latch x,normal force on load y,frictional force on latch x,frictional force on load y,spring force,unlatching motor force
0,-0.000971550483036125,0,0,0,0,3.2840754398683,-0,-0,3.2840754398683,0.00125
0.000155074408256553,-0.000971550483033634,6.41351790297764e-11,4.99067655216318e-09,6.42549946479155e-05,3.27795165609548e-06,3.28407543730021,-0,-0,3.28407543985514,0.00123393625133802
0.000310148816513106,-0.000971550482996511,5.09610251789392e-10,1.99033508828155e-08,0.000128021219840261,1.30728211199695e-05,3.28407542951798,-0,-0,3.28407543965898,0.00121799469503993
0.00046522322476966,-0.000971550482836418,1.71281442564375e-09,4.46886300371625e-08,0.000191638726019458,2.9352166257766e-05,3.28407541607169,-0,-0,3.28407543881303,0.00120209031849514
0.000620297633026213,-0.00097155048240649,4.05384391102631e-09,7.93495023741246e-08,0.000255442302045095,5.21179496940191e-05,3.28407539607025,-0,-0,3.28407543654126,0.00118613942448873
0.000775372041282766,-0.000971550481499999,7.92633231438926e-09,1.23940524453776e-07,0.000319763545736417,8.14060047204963e-05,3.28407536817577,-0,-0,3.2840754317513,0.0011700591135659
0.000930446449539319,-0.000971550479847486,1.37472892243673e-08,1.78567599036302e-07,0.000384932353063827,0.000117285889442249,3.28407533058698,-0,-0,3.28407542301929,0.00115376691173404
0.00108552085779587,-0.000971550477112366,2.19671530118795e-08,2.43387724947337e-07,0.000451278982754925,0.000159860722429636,3.28407528101162,-0,-0,3.28407540856672,0.00113718025431127
0.00124059526605243,-0.000971550472884937,3.30802748989117e-08,3.18609280733022e-07,0.000519135455747607,0.000209267368953437,3.28407521662763,-0,-0,3.28407538622866,0.0011202161360631
0.00139566967430898,-0.000971550466674717,4.7636062356735e-08,4.04492373474852e-07,0.000588837581678385,0.000265676669996275,3.28407513403246,-0,-0,3.28407535341339,0.0011027906045804
0.00155074408256553,-0.000971550457900984,6.62509799364101e-08,5.01349582389368e-07,0.000660726386642438,0.000329293930538318,3.28407502918,-0,-0,3.28407530705232,0.00108481840333939
0.00170581849082209,-0.000971550445881382,8.96216896598178e-08,6.09546900600737e-07,0.000735150067250914,0.000400359537973481,3.28407489730369,-0,-0,3.28407524353984,0.00106621248318727
0.00186089289907864,-0.000971550429818374,1.18539531699552e-07,7.29504973630384e-07,0.000812465539802682,0.000479149775373816,3.28407473282513,-0,-0,3.2840751586617,0.00104688361504933
0.00201596730733519,-0.000971550408783335,1.53906674588375e-07,8.6170058446138e-07,0.000893040315151792,0.000565977796658289,3.28407452924601,-0,-0,3.28407504751097,0.00102673992121205
0.00217104171559175,-0.000971550381697984,1.96754207969413e-07,1.00666846634824e-06,0.000977254232942308,0.000661194816968182,3.28407427902188,-0,-0,3.28407490438995,0.00100568644176442
0.0023261161238483,-0.00097155034731286,2.48262502534497e-07,1.16500327743049e-06,0.00106550127628422,0.000765191409241528,3.28407397341562,-0,-0,3.28407472269638,0.000983624680928945
0.00248119053210485,-0.000971550304182388,3.09784300078345e-07,1.33736208254586e-06,0.00115819153630934,0.000878399133829475,3.28407360232737,-0,-0,3.28407449479175,0.000960452115922666
0.0026362649403614,-0.000971550250636225,3.82870761510628e-07,1.52446677428743e-06,0.00125575299564586,0.00100129212809073,3.28407315409914,-0,-0,3.28407421184984,0.000936061751088536
0.00279133934861796,-0.000971550184746145,4.69301293791834e-07,1.72710732639788e-06,0.00135863376473844,0.00113438924253293,3.28407261528866,-0,-0,3.28407386368178,0.000910341558815389
0.00294641375687451,-0.000971550104288213,5.71117158722734e-07,1.94614464387846e-06,0.00146730387501586,0.00127825591189287,3.28407197041142,-0,-0,3.28407343853614,0.000883174031246034
0.00310148816513106,-0.000971550006699071,6.90660245152033e-07,2.18251467594115e-06,0.00158225781244012,0.0014335068554503,3.28407120164186,-0,-0,3.28407292286798,0.000854435546889971
0.00325656257338762,-0.000971549889026243,8.30616653404491e-07,2.43723172115937e-06,0.00170401637955556,0.0016008082464966,3.28407028847451,-0,-0,3.28407230107621,0.000823995905111111
0.00341163698164417,-0.000971549747870615,9.94067242623239e-07,2.71139347153831e-06,0.00183312954555885,0.00178088102361584,3.28406920733086,-0,-0,3.28407155519972,0.000791717613610289
0.00356671138990072,-0.00097154957932132,1.18454432047743e-06,3.00618482906043e-06,0.00197017843834574,0.00197450339530219,3.2840679311154,-0,-0,3.28407066457326,0.000757455390413566
0.00372178579815728,-0.000971549378880221,1.40609762835389e-06,3.32288396199143e-06,0.00211577854346892,0.00218251481517542,3.28406642869963,-0,-0,3.28406960542843,0.00072105536413277
0.00387686020641383,-0.0009715491413767,1.66336819591302e-06,3.66286669875716e-06,0.00227058187804472,0.00240581886467405,3.28406466434126,-0,-0,3.28406835044344,0.00068235453048882
0.00403193461467038,-0.000971548860868652,1.96167452515121e-06,4.02761369704113e-06,0.0024352805858211,0.00264538795778243,3.28406259700798,-0,-0,3.28406686821995,0.000641179853544725
0.00418700902292694,-0.000971548530531083,2.30710888991573e-06,4.41871549276712e-06,0.0026106093419726,0.00290226665230989,3.28406017961834,-0,-0,3.28406512269444,0.000597347664506851
0.00434208343118349,-0.000971548142526418,2.70664991328158e-06,4.83788089836772e-06,0.00279734940065052,0.00317757715986385,3.28405735815645,-0,-0,3.28406307245292,0.000550662649837371
0.00449715783944004,-0.000971547687858921,3.16828819592049e-06,5.28694280509291e-06,0.00299633128401077,0.00347252314936715,3.2840540706801,-0,-0,3.28406066996173,0.000500917178997307
0.0046522322476966,-0.000971547156204966,3.7011733445751e-06,5.76786793585849e-06,0.00320843934283705,0.00378839614358895,3.28405024616277,-0,-0,3.28405786067072,0.000447890164290738
0.00480730665595315,-0.000971546535722809,4.31577792115749e-06,6.28276353082427e-06,0.00343461479398203,0.00412657989895848,3.28404580319796,-0,-0,3.28405458200812,0.000391346301504493
0.0049623810642097,-0.00097154581283063,5.02408939688122e-06,6.8338885811972e-06,0.00367586085468129,0.0044885577700719,3.28404064848548,-0,-0,3.28405076220777,0.000331034786329678
0.00511745547246626,-0.000971544971957974,5.8398241847832e-06,7.4236615723461e-06,0.00393324620951985,0.00487591777832893,3.28403467513889,-0,-0,3.28404631899584,0.000266688447620037
0.00527252988072281,-0.000971543995255691,6.7786781247972e-06,8.05467331763545e-06,0.00420791077537587,0.0052903610202504,3.28402776070831,-0,-0,3.28404115805826,0.000198022306156033
0.00542760428897936,-0.000971542862271108,7.85860600378078e-06,8.72969599076319e-06,0.00450106970184182,0.00573370757421489,3.28401976496893,-0,-0,3.28403517132448,0.000124732574539545
0.00558267869723591,-0.000971541549569653,9.10014786715168e-06,9.45169746190021e-06,0.004814019727494,0.00620790588485215,3.28401052734303,-0,-0,3.28402823496838,4.64950681265e-05
0.00573775310549247,-0.000971540030289406,1.05276650298512e-05,1.02238621827353e-05,0.00514856461926185,0.00671504633118684,3.28399980996937,-0,-0,3.28402020705475,0
0.00589282751374902,-0.000971538272993307,1.21759995944281e-05,1.10498995063784e-05,0.00550953873087463,0.00725756375559143,3.28398734683934,-0,-0,3.28401092147481,0
0.00604790192200557,-0.000971536240648662,1.40812054187292e-05,1.19341389207651e-05,0.00589953133704166,0.00783830016621087,3.28397293304122,-0,-0,3.28400018255443,0
0.00620297633026213,-0.000971533890378923,1.62834754631979e-05,1.28812381662882e-05,0.00632059636494743,0.00846031262996146,3.28395626450321,-0,-0,3.28398776374329,0
0.00635805073851868,-0.000971531172603474,1.88292664175498e-05,1.38961848584678e-05,0.00677495078291933,0.00912687434302505,3.28393698961375,-0,-0,3.28397340307059,0
0.00651312514677524,-0.00097152802998511,2.17722847260708e-05,1.49843253438766e-05,0.00726498739702155,0.00984149345285138,3.28391470175939,-0,-0,3.28395679758483,0
0.00666819955503179,-0.000971524396229663,2.51746107997081e-05,1.61513895408343e-05,0.00779328595568248,0.0106079292114835,3.28388893081467,-0,-0,3.28393759701292,0
0.00682327396328834,-0.000971520194675862,2.91080191876189e-05,1.74035250809604e-05,0.00836262846905333,0.0114302141976978,3.28385913314579,-0,-0,3.28391539631147,0
0.00697834837154489,-0.000971515336693272,3.36554782418527e-05,1.87473249629978e-05,0.00897601170697253,0.0123126722295279,3.28382468025431,-0,-0,3.28388972720481,0
0.00713342277980145,-0.000971509719794569,3.89129166612357e-05,2.01898676052753e-05,0.00963666532606293,0.0132599443582193,3.28378484539735,-0,-0,3.28386004821481,0
0.007288497188058,-0.000971503225496269,4.49912253401996e-05,2.17387480156236e-05,0.0103480660599543,0.0142770089534084,3.28373878842603,-0,-0,3.2838257333629,0
0.00744357159631455,-0.000971495716793576,5.20186197112504e-05,2.34021243939169e-05,0.0111139589429546,0.0153692118284449,3.28368553789146,-0,-0,3.28378605883534,0
0.00759864600457111,-0.000971487035301965,6.01433137780527e-05,2.51887537600124e-05,0.0119383736011055,0.0165422890422998,3.28362397079152,-0,-0,3.28374018789011,0
0.00775372041282766,-0.000971476997882114,6.9536676776042e-05,2.71080456698549e-05,0.0128256488203219,0.0178024014333209,3.2835527886607,-0,-0,3.28368715303763,0
0.00790879482108421,-0.000971465392817778,8.03968077458279e-05,2.91701035845049e-05,0.0137804515017473,0.0191561608652781,3.28347049049758,-0,-0,3.28362583586408,0
0.00806386922934077,-0.000971451975309443,9.29527491615258e-05,3.1385786003373e-05,0.0148078046920244,0.0206106692253822,3.28337534085224,-0,-0,3.28355494324599,0
0.00821894363759732,-0.000971436462357957,0.000107469270422981,3.37667555588243e-05,0.0159131100842582,0.0221735492395285,3.28326533360259,-0,-0,3.28347298035023,0
0.00837401804585387,-0.00097141852675566,0.000124252484672437,3.63255473762806e-05,0.0171021793844219,0.0238529875882499,3.28313814942272,-0,-0,3.28337821892992,0
0.00852909245411042,-0.000971397790230174,0.0001436562564744,3.90756285223295e-05,0.0183812615242942,0.0256577717413899,3.28299110726985,-0,-0,3.28326866115875,0
0.00868416686236698,-0.000971373815440535,0.000166089680523049,4.20314732606745e-05,0.0197570771502718,0.0275973366331855,3.28282110777017,-0,-0,3.28314199742237,0
0.00883924127062353,-0.000971346096784392,0.000192025668864224,4.52086357191338e-05,0.0212368518014818,0.0296818089722364,3.28262456822364,-0,-0,3.28299555785555,0
0.00899431567888009,-0.000971314049742671,0.000222010901924032,4.86238319534737e-05,0.0228283533867416,0.0319220568913726,3.2823973473036,-0,-0,3.28282625618932,0
0.00914939008713664,-0.000971276998554099,0.000256677334757132,5.22950286977382e-05,0.0245399325418712,0.0343297429564256,3.28213465800395,-0,-0,3.28263052482357,0
0.00930446449539319,-0.000971234162031597,0.00029675543385862,5.62415325742022e-05,0.0263805631071427,0.0369173762009494,3.28183096752748,-0,-0,3.28240424014889,0
0.00945953890364975,-0.000971184637044972,0.000343089583877959,6.04840976475411e-05,0.028359890750733,0.0396983746058599,3.28147988078919,-0,-0,3.28214263562758,0
0.0096146133119063,-0.000971127379636592,0.000396655694671953,6.50450227061799e-05,0.0304882766502362,0.0426871188747074,3.2810740073452,-0,-0,3.28184020248792,0
0.00976968772016285,-0.000971061182906514,0.000458581806724584,6.99482800467052e-05,0.0327768552415386,0.0458990244141412,3.2806048057063,-0,-0,3.28149057350999,0
0.00992476212841941,-0.000970984651859006,0.000530171513298389,7.52196224815706e-05,0.0352375815176407,0.0493505960074832,3.28006240648223,-0,-0,3.28108639097045,0
0.010079836536676,-0.000970896173828702,0.000612931475934292,8.08867353383557e-05,0.0378832984190202,0.0530595081928374,3.27943540470288,-0,-0,3.28061915151923,0
0.0102349109449325,-0.000970793884960682,0.000708602583155197,8.69793556758128e-05,0.0407277883458777,0.0570446594950596,3.27871062483638,-0,-0,3.28007903058843,0
0.0103899853531891,-0.000970675630718154,0.000819196623521241,9.35294489085287e-05,0.04378585022506,0.061326258429386,3.27787284438532,-0,-0,3.27945467575921,0
0.0105450597614456,-0.000970538921195622,0.000947037727826662,0.000100571343570991,0.0470733559263283,0.065925874918916,3.27690448186743,-0,-0,3.27873297336418,0
0.0107001341697022,-0.000970380878466682,0.0010948111366619,0.000108141933215451,0.0506073363447088,0.0708665266760578,3.27578522996344,-0,-0,3.27789877392104,0
0.0108552085779587,-0.000970198176994209,0.00126561829070357,0.000116280831126768,0.0544060434463148,0.0761727236887785,3.27449164165602,-0,-0,3.27693458212579,0
0.0110102829862153,-0.000969986973577141,0.00146304149090105,0.000125030596367489,0.0584890433842388,0.0818705455636047,3.27299664509982,-0,-0,3.27582019319592,0
0.0111653573944718,-0.000969742827861112,0.00169121707632174,0.000134436915067647,0.0628772851567977,0.087987672696584,3.27126899549681,-0,-0,3.27453228152266,0
0.0113204318027284,-0.000969460609364518,0.00195492084100679,0.000144548846913779,0.0675931968745915,0.0945534389200072,3.26927263653204,-0,-0,3.27304392098325,0
0.0114755062109849,-0.000969134391474287,0.00225966506790381,0.000155419040403495,0.0726607612072345,0.101598837836347,3.26696597642569,-0,-0,3.27132404026344,0
0.0116305806192415,-0.000968757328344914,0.00261181091138264,0.000167103995161637,0.0781056093385963,0.109156527650013,3.26430105189976,-0,-0,3.26933679300726,0
0.011785655027498,-0.000968321513729169,0.00301869663440712,0.000179664317065974,0.0839551010438943,0.11726079170251,3.26122257654579,-0,-0,3.267040839359,0
0.0119407294357546,-0.0009678178183679,0.00348878478460488,0.00019316499138489,0.0902384088045848,0.125947461858668,3.25766685329934,-0,-0,3.26438852335631,0
0.0120958038440111,-0.000967235702469436,0.00403183078654802,0.000207675680655076,0.0969865966206564,0.135253797720717,3.25356053252976,-0,-0,3.26132493087063,0
0.0122508782522677,-0.000966563001470828,0.00465907455695281,0.00022327100277602,0.104232683362138,0.145218279231269,3.24881920915366,-0,-0,3.25778682251357,0
0.0124059526605243,-0.000965785677891802,0.00538346050558558,0.000240030869816527,0.112011708942529,0.155880347557674,3.24334581861882,-0,-0,3.25370140889281,0
0.0125610270687808,-0.000964887540008407,0.00621988504212483,0.000258040763189435,0.120360760397182,0.167279994285217,3.23702884780758,-0,-0,3.24898497894869,0
0.0127161014770374,-0.000963849915189348,0.00718548071538017,0.000277392104650819,0.129319006178262,0.179457276077399,3.22974029338263,-0,-0,3.24354132658248,0
0.0128711758852939,-0.00096265128214044,0.00829993238276186,0.000298182516557001,0.138927659563821,0.192451594069927,3.22133341700365,-0,-0,3.23726000990405,0
0.0130262502935505,-0.000961266843854806,0.00958583899069805,0.000320516206420792,0.149229950579363,0.206300851361898,3.21164019999617,-0,-0,3.23001436336704,0
0.013181324701807,-0.000959668049933535,0.0110691110589405,0.000344504192731327,0.160270987953114,0.221040269064007,3.20046859333808,-0,-0,3.22165932896356,0
0.0133363991100636,-0.000957822043425402,0.0127794221456025,0.000370264670273965,0.172097621832723,0.236700998131899,3.18759943914592,-0,-0,3.21202900341566,0
0.0134914735183201,-0.000955691045966373,0.0147506970133061,0.000397923169661372,0.184758146599197,0.2533082565494,3.17278322211647,-0,-0,3.20093400875438,0
0.0136465479265767,-0.000953231650142307,0.0170216587309518,0.000427612849783053,0.198301984554281,0.270879134847286,3.15573651567152,-0,-0,3.18815856974218,0
0.0138016223348332,-0.000950394038169976,0.0196364072878938,0.000459474540646294,0.212779144920186,0.289419765449613,3.13613836342333,-0,-0,3.17345745676192,0
0.0139566967430898,-0.000947121091905265,0.0226450538217,0.000493656880998918,0.228239630740116,0.308921982753071,3.11362648224309,-0,-0,3.15655268779397,0
0.0141117711513463,-0.000943347418547023,0.0261043678466114,0.000530316162345109,0.244732529910662,0.329359162010444,3.08779363827938,-0,-0,3.13713021238366,0
0.0142668455596029,-0.000938998257122017,0.0300784612826767,0.000569616196863392,0.262305015849811,0.350681336777766,3.05818415168407,-0,-0,3.11483651840647,0
0.0144219199678594,-0.000933988297387835,0.0346394409076331,0.000611727830568646,0.281000900789898,0.372809306709252,3.02429104694564,-0,-0,3.08927547676154,0
0.014576994376116,-0.000928220380389059,0.0398680518866436,0.00065682838601514,0.300859062823872,0.395627831865726,2.98555392324145,-0,-0,3.06000545291007,0
0.0147320687843726,-0.000921584126900065,0.0458542000738265,0.000705100648570889,0.321911252723929,0.418977689826934,2.94135832221292,-0,-0,3.02653714897145,0
0.0148871431926291,-0.000913954470228264,0.0526973747079596,0.000756731674629286,0.344179745084372,0.442646764649096,2.8910368204042,-0,-0,2.98833232644662,0
0.0150422176008857,-0.000905190169176253,0.0605067909722588,0.000811910984864192,0.367674179542791,0.466360085079453,2.83387300661358,-0,-0,2.94480410603146,0
0.0151972920091422,-0.000895132287407686,0.0694012717361077,0.00087082846511887,0.392388228459555,0.489769194819212,2.76910871950473,-0,-0,2.89531912516943,0
0.0153523664173988,-0.00088360276745415,0.0795085966129069,0.000933671438539091,0.41829530978734,0.512441060340274,2.69595617598904,-0,-0,2.83920256576159,0
0.0155074408256553,-0.000870403098822241,0.0909643309650878,0.00100062133137642,0.445344144401331,0.533847319520759,2.61361541640056,-0,-0,2.77574641685432,0
0.0156625152339119,-0.000855313289158721,0.103909763255197,0.00107184926810329,0.473453359609736,0.553354593940236,2.52129909018325,-0,-0,2.70422231216459,0
0.0158175896421684,-0.000838091154469262,0.118488956941751,0.00114751117349118,0.5025060682576,0.570217326799563,2.41826474245418,-0,-0,2.6238992148182,0
0.015972664050425,-0.000818472248677562,0.134844466943198,0.00122774158427224,0.532343768571402,0.583574626411173,2.30385660538251,-0,-0,2.53406745350969,0
0.0161277384586815,-0.000796170454256843,0.153111756133233,0.00131264699492978,0.562760619818116,0.59245337037156,2.17755601753733,-0,-0,2.43406883227718,0
0.0162828128669381,-0.000770879704152384,0.17341184350585,0.00140229776700229,0.59349772024839,0.595779822935448,2.03904162214992,-0,-0,2.32333409014192,0
0.0164378872751946,-0.000742276787449928,0.195842371903615,0.00149671992315671,0.624238603832325,0.592402514595465,1.88825592247132,-0,-0,2.20142590141855,0
0.0165929616834512,-0.000710025944302042,0.220466725083554,0.00159588542915234,0.654605993482228,0.58112877245383,1.72547751724926,-0,-0,2.06808805962974,0
0.0167480360917077,-0.000673784913939262,0.247301702294641,0.00169970331435491,0.684160917690606,0.56077691923163,1.55139106654478,-0,-0,1.92329591234703,0
0.0169031104999643,-0.000633213452743299,0.27630388409385,0.00180800950131931,0.712405318626191,0.530244872459402,1.36715149174681,-0,-0,1.76730779377702,0
0.0170581849082208,-0.000587983506806755,0.307355196866499,0.00192055880853463,0.738787416733481,0.488594240694955,1.17443036784138,-0,-0,1.60070870060539,0
0.0172132593164774,-0.000537792156880689,0.340249469627487,0.00203701668526431,0.76271408032917,0.435145897392005,0.975436944256569,-0,-0,1.42444473512803,0
0.017368333724734,-0.000482375958633943,0.374679618751417,0.00215695468860561,0.78356507829275,0.369581087639265,0.772902552950741,-0,-0,1.23983738650334,0
0.0175234081329905,-0.000421527663532032,0.410228961916676,0.00227984716440943,0.800715744373424,0.292037577404102,0.570020909990342,-0,-0,1.04857675526471,0
0.0176784825412471,-0.000355113349167713,0.446366416197465,0.00240507309632623,0.813561654205141,0.203189071257507,0.370338876156702,-0,-0,0.852684639667612,0
0.0178335569495036,-0.000283090309230071,0.48244856086774,0.00253192107443014,0.821548588255019,0.104294193954576,0.177599758308878,-0,-0,0.654450034148961,0
0.0179847010719493,-0.000207556931491826,0.516850780905167,0.00265636017298892,0.824204211110489,-1.02020545578624e-14,-1.62688664489258e-14,0,0,0.461335557196582,0
0.0179847010719493,-0.000207556931491826,0.516850780905167,0.00265636017298892,0,0,0,0,0,0.461335557196582,0
0.0179875813680037,-0.000206067323884527,0.517491767548112,0.00265636017298892,0,0,0,0,0,0.457671862437716,0
