Time,y,ydot,x,xdot,normal force on latch x,normal force on load y,frictional force on latch x,frictional force on load y,spring force,unlatching motor force
0,-0.000971550483036125,0,0,0,0,3.2840754398683,-0,-0,3.2840754398683,0.00125
0.000155074408256553,-0.000971550483033634,6.41351790298118e-11,4.99067655216437e-09,6.42549946479356e-05,3.27795165771451e-06,3.28407543892149,-0,-0,3.28407543985514,0.00123393625133802
0.000310148816513106,-0.000971550482996511,5.09610251792185e-10,1.99033508828426e-08,0.000128021219840788,1.30728211456035e-05,3.28407543595315,-0,-0,3.28407543965898,0.0012179946950398
0.00046522322476966,-0.000971550482836418,1.71281442569139e-09,4.46886300374744e-08,0.00019163872602345,2.93521663869509e-05,3.28407543050266,-0,-0,3.28407543881303,0.00120209031849414
0.000620297633026213,-0.00097155048240649,4.05384391138075e-09,7.93495023758596e-08,0.000255442302061844,5.21179501027245e-05,3.28407542175194,-0,-0,3.28407543654126,0.00118613942448454
0.000775372041282766,-0.000971550481499999,7.92633231607965e-09,1.23940524460386e-07,0.000319763545787555,8.14060057248677e-05,3.28407540851888,-0,-0,3.2840754317513,0.00117005911355311
0.000930446449539319,-0.000971550479847486,1.37472892304526e-08,1.78567599056063e-07,0.000384932353191621,0.000117285891549997,3.28407538924174,-0,-0,3.28407542301929,0.00115376691170209
0.00108552085779587,-0.000971550477112366,2.19671530299536e-08,2.43387724997385e-07,0.000451278983033428,0.000159860726402597,3.28407536195424,-0,-0,3.28407540856672,0.00113718025424164
0.00124059526605243,-0.000971550472884937,3.30802749455967e-08,3.18609280845354e-07,0.000519135456297213,0.0002092673758852,3.28407532425133,-0,-0,3.28407538622866,0.0011202161359257
0.00139566967430898,-0.000971550466674717,4.76360624652357e-08,4.0449237370491e-07,0.000588837582684675,0.000265676681409462,3.28407527324498,-0,-0,3.28407535341339,0.00110279060432883
0.00155074408256553,-0.000971550457900984,6.62509801686385e-08,5.0134958282797e-07,0.00066072638838044,0.000329293948506933,3.2840752055094,-0,-0,3.28407530705232,0.00108481840290489
0.00170581849082209,-0.000971550445881382,8.96216901251744e-08,6.09546901390202e-07,0.000735150070116006,0.000400359565276848,3.28407511701471,-0,-0,3.28407524353984,0.001066212482471
0.00186089289907864,-0.000971550429818374,1.18539532583354e-07,7.29504974986225e-07,0.000812465544350203,0.000479149815690165,3.28407500304818,-0,-0,3.2840751586617,0.00104688361391245
0.00201596730733519,-0.000971550408783335,1.53906676193881e-07,8.61700586700695e-07,0.00089304032214695,0.000565977854807516,3.28407485812132,-0,-0,3.28407504751097,0.00102673991946326
0.00217104171559175,-0.000971550381697983,1.96754210779238e-07,1.00666846992721e-06,0.000977254243423974,0.000661194899216109,3.28407467586159,-0,-0,3.28407490438994,0.00100568643914401
0.0023261161238483,-0.000971550347312859,2.48262507298749e-07,1.16500328299247e-06,0.00106550129164466,0.000765191523679768,3.28407444888658,-0,-0,3.28407472269637,0.000983624677088834
0.00248119053210485,-0.000971550304182386,3.09784307940492e-07,1.33736209098416e-06,0.00115819155839577,0.000878399290849795,3.28407416865833,-0,-0,3.28407449479174,0.000960452110401057
0.0026362649403614,-0.000971550250636221,3.82870774184497e-07,1.52446678682474e-06,0.00125575302688667,0.00100129234097493,3.2840738253158,-0,-0,3.28407421184982,0.000936061743278333
0.00279133934861796,-0.000971550184746138,4.69301313810249e-07,1.72710734468905e-06,0.00135863380830323,0.00113438952818717,3.28407340748122,-0,-0,3.28407386368174,0.000910341547924194
0.00294641375687451,-0.000971550104288203,5.71117189782116e-07,1.9461446701393e-06,0.0014673039350136,0.0012782562917578,3.28407290203899,-0,-0,3.28407343853609,0.0008831740162466
0.00310148816513106,-0.000971550006699055,6.90660292590471e-07,2.18251471311402e-06,0.00158225789416928,0.00143350735663113,3.28407229387988,-0,-0,3.28407292286789,0.00085443552645768
0.00325656257338762,-0.000971549889026218,8.3061672485711e-07,2.43723177311907e-06,0.00170401648981296,0.00160080890315988,3.2840715656106,-0,-0,3.28407230107608,0.000823995877546759
0.00341163698164417,-0.000971549747870577,9.94067348922629e-07,2.71139354335559e-06,0.00183312969302783,0.00178088187872023,3.28407069721725,-0,-0,3.28407155519951,0.000791717576743042
0.00356671138990072,-0.000971549579321262,1.18454447687747e-06,3.0061849273275e-06,0.00197017863407432,0.00197450450273281,3.28406966568475,-0,-0,3.28407066457295,0.00075745534148142
0.00372178579815728,-0.000971549378880132,1.40609785619836e-06,3.322884095237e-06,0.00211577880146885,0.00218251624238404,3.28406844455508,-0,-0,3.28406960542796,0.000721055299632788
0.00387686020641383,-0.000971549141376568,1.66336852488777e-06,3.66286687795654e-06,0.00227058221602757,0.0024058206959287,3.2840670034293,-0,-0,3.28406835044275,0.000682354445993106
0.00403193461467038,-0.00097154886086846,1.96167499633616e-06,4.02761393626454e-06,0.00243528102611839,0.00264539029818149,3.2840653073885,-0,-0,3.28406686821894,0.000641179743470402
0.00418700902292694,-0.000971548530530803,2.30710955988045e-06,4.41871580997318e-06,0.00261060991266341,0.00290226963271475,3.2840633163428,-0,-0,3.28406512269295,0.000597347521834146
0.00434208343118349,-0.000971548142526014,2.70665085960825e-06,4.83788131640924e-06,0.00279735013696908,0.00317758094298465,3.28406098427301,-0,-0,3.28406307245078,0.000550662465757729
0.00449715783944004,-0.000971547687858342,3.16828952457906e-06,5.28694335294367e-06,0.00299633223006685,0.00347252793723101,3.28405825838004,-0,-0,3.28406066995867,0.000500916942483288
0.0046522322476966,-0.000971547156204142,3.70117519982934e-06,5.76786865016449e-06,0.00320844055376172,0.0037884021867443,3.28405507809262,-0,-0,3.28405786066637,0.000447889861559569
0.00480730665595315,-0.000971546535721644,4.31578049873828e-06,6.28276445779098e-06,0.00343461633854339,0.00412658750775778,3.28405137395598,-0,-0,3.28405458200196,0.000391345915364154
0.0049623810642097,-0.000971545812828993,5.02409296162223e-06,6.83388977896992e-06,0.00367586281854589,0.00448856732856375,3.28404706633451,-0,-0,3.28405076219912,0.000331034295363527
0.00511745547246626,-0.000971544971955685,5.83982909399065e-06,7.42366311390133e-06,0.00393324869921804,0.00487592976127197,3.28404206395979,-0,-0,3.28404631898375,0.00026668782519549
0.00527252988072281,-0.000971543995252506,6.77868485944901e-06,8.05467529441753e-06,0.00420791392324592,0.00529037601404299,3.28403626223557,-0,-0,3.28404115804143,0.000198021519188521
0.00542760428897936,-0.000971542862266697,7.85861520974805e-06,8.72969851709871e-06,0.00450107367202695,0.00573372630251089,3.28402954134048,-0,-0,3.28403517130118,0.000124731581993264
0.00558267869723591,-0.000971541549563569,9.10016041007383e-06,9.45170068052456e-06,0.00481402472341207,0.00620792924003708,3.28402176401731,-0,-0,3.28402823493623,4.64938191469837e-05
0.00573775310549247,-0.000971540030281046,1.05276820983089e-05,1.02238662712237e-05,0.0051485709077024,0.00671507548270224,3.28401275327452,-0,-0,3.28402020701058,0
0.00589282751374902,-0.000971538272981837,1.21760229431841e-05,1.10499046960936e-05,0.00550954670835681,0.00725760022484565,3.28400230649627,-0,-0,3.28401092141421,0
0.00604790192200557,-0.000971536240632947,1.40812372708734e-05,1.19341455053405e-05,0.00589954142692515,0.00783834576314575,3.28399022462983,-0,-0,3.28400018247139,0
0.00620297633026213,-0.000971533890357421,1.6283518810298e-05,1.28812465126255e-05,0.00632060909512861,0.00846036960680582,3.28397625279299,-0,-0,3.28398776362968,0
0.00635805073851868,-0.000971531172574106,1.88293252828911e-05,1.3896195425255e-05,0.00677496681144702,0.00912694550236154,3.28396009625316,-0,-0,3.28397340291541,0
0.00651312514677524,-0.000971528029945072,2.17723645159116e-05,1.4984338703779e-05,0.0072650075438578,0.00984158228145221,3.28394141417185,-0,-0,3.28395679737327,0
0.00666819955503179,-0.000971524396175174,2.51747187745279e-05,1.61514064088442e-05,0.0077933112421916,0.0106080400471464,3.2839198124705,-0,-0,3.283937596725,0
0.00682327396328834,-0.000971520194601833,2.91081650926683e-05,1.74035463491182e-05,0.00836266016724632,0.011430352436373,3.28389483545014,-0,-0,3.2839153959203,0
0.00697834837154489,-0.000971515336592857,3.3655675150576e-05,1.87473517438829e-05,0.00897605140046037,0.0123128445829333,3.28386595627089,-0,-0,3.28388972667423,0
0.00713342277980145,-0.000971509719658566,3.89131821056025e-05,2.01899012861009e-05,0.00963671498627979,0.0132601591742275,3.28383256573447,-0,-0,3.28386004749619,0
0.007288497188058,-0.000971503225312316,4.49915828201765e-05,2.17387903251725e-05,0.0103481281403501,0.0142772766139636,3.28379395957289,-0,-0,3.28382573239093,0
0.00744357159631455,-0.000971495716545077,5.2019100718822e-05,2.34021774865239e-05,0.011114036496829,0.0153695452449165,3.28374932344533,-0,-0,3.28378605752233,0
0.00759864600457111,-0.000971487034966654,6.01439604984664e-05,2.5188820318831e-05,0.0119384704272687,0.0165427042702472,3.28369771595658,-0,-0,3.28374018611842,0
0.00775372041282766,-0.000971476997430123,6.95375457094763e-05,2.71081290369519e-05,0.0128257696451407,0.0178029184381123,3.28363804860804,-0,-0,3.28368715064945,0
0.00790879482108421,-0.000971465392209068,8.03979745403252e-05,2.91702079203733e-05,0.0137806022044403,0.0191568044719503,3.28356906309599,-0,-0,3.28362583264789,0
0.00806386922934077,-0.000971451974490351,9.29543150899331e-05,3.1385916488205e-05,0.0148079925857804,0.0206114703016927,3.28348930454928,-0,-0,3.28355493891828,0
0.00821894363759732,-0.00097143646125659,0.000107471371029139,3.37669186391832e-05,0.0159133442648565,0.0221745461636384,3.28339709114956,-0,-0,3.28347297453119,0
0.00837401804585387,-0.000971418525275718,0.000124255301346423,3.63257510757779e-05,0.0171024711639091,0.0238542280760906,3.28329047845807,-0,-0,3.28337821111082,0
0.00852909245411042,-0.000971397788242708,0.00014366003192283,3.90758828239684e-05,0.0183816249708549,0.0256593151148147,3.28316721872143,-0,-0,3.28326865065843,0
0.00868416686236698,-0.000971373812772905,0.000166094739445279,4.20317905854675e-05,0.0197575297568261,0.0275992566414995,3.28302471337665,-0,-0,3.2831419833289,0
0.00883924127062353,-0.000971346093205514,0.000192032445628416,4.52090315192002e-05,0.021237415321655,0.0296841972971586,3.28285995851745,-0,-0,3.28299553894835,0
0.00899431567888009,-0.00097131404494329,0.000222019977493869,4.8624325449079e-05,0.0228290548657949,0.0319250275025595,3.28266948170495,-0,-0,3.28282623083502,0
0.00914939008713664,-0.000971276992120384,0.000256689486184815,5.22956437969287e-05,0.0245408056102144,0.0343334375262522,3.28244926890207,-0,-0,3.28263049083663,0
0.00930446449539319,-0.000971234153409907,0.000296771700236221,5.62422990083433e-05,0.0263816495709037,0.0369219708267284,3.2821946804313,-0,-0,3.28240419460563,0
0.00945953890364975,-0.000971184625494619,0.000343111354800966,6.04850523957416e-05,0.0283612425910517,0.0397040881716202,3.28190035315222,-0,-0,3.28214257461697,0
0.0096146133119063,-0.000971127364166912,0.00039668482804071,6.50462117463655e-05,0.030489958479073,0.0426942234238107,3.28156008869254,-0,-0,3.28184012077954,0
0.00976968772016285,-0.00097106116219241,0.000458620786777148,6.99497605589745e-05,0.032778947388137,0.0459078580549119,3.28116672263971,-0,-0,3.28149046410865,0
0.00992476212841941,-0.00097098462412853,0.000530223661040622,7.52214655510657e-05,0.0352401838225543,0.0493615789133393,3.28071197589262,-0,-0,3.28108624452342,0
0.010079836536676,-0.000970896136712149,0.000613001231302518,8.08890293590164e-05,0.0378865349936196,0.0530731625074315,3.28018628002974,-0,-0,3.28061895552086,0
0.0102349109449325,-0.000970793835289753,0.000708695880890935,8.69822105255002e-05,0.0407318134352871,0.0570616340008288,3.27957857961937,-0,-0,3.28007876832201,0
0.0103899853531891,-0.000970675564256464,0.000819321396725069,9.35330012014019e-05,0.0437908555412352,0.0613473592230268,3.27887609955009,-0,-0,3.27945432487774,0
0.0105450597614456,-0.00097053883227991,0.000947204579187671,0.000100575763108714,0.0470795797054138,0.0659521034162903,3.27806408219627,-0,-0,3.2787325040019,0
0.0107001341697022,-0.000970380759525756,0.00109503423674966,0.000108147431086464,0.0506150746389945,0.0708991268374598,3.2771254781671,-0,-0,3.27789814616291,0
0.0108552085779587,-0.000970198017908113,0.00126591657615598,0.000116287669673943,0.0544156641069364,0.0762132405085303,3.27604059708778,-0,-0,3.27693374263894,0
0.0110102829862153,-0.000969986760818956,0.00146344026586768,0.000125039101662305,0.0585010034304041,0.0819208976724573,3.27478669784772,-0,-0,3.27581907072211,0
0.0111653573944718,-0.000969742543352476,0.0016917501505411,0.000134447492317991,0.0628921523539792,0.0880502422552682,3.27333752501923,-0,-0,3.27453078087289,0
0.0113204318027284,-0.000969460228945741,0.00195563338246796,0.000144561999646114,0.0676116764128171,0.0946311830281693,3.27166276809425,-0,-0,3.27304191501871,0
0.0114755062109849,-0.000969133882861025,0.00226061741560754,0.000155435394278744,0.0726837289667446,0.10169542642736,3.26972744727672,-0,-0,3.27132135919881,0
0.0116305806192415,-0.000968756648402705,0.00261308365259366,0.000167124327439928,0.0781341528153844,0.109276514044047,3.26749120296066,-0,-0,3.26933321016397,0
0.011785655027498,-0.000968320604827933,0.0030203973963559,0.000179689593378934,0.083990570529157,0.117409823562483,3.2649074849019,-0,-0,3.26703605214124,0
0.0119407294357546,-0.000967816603529551,0.00349105726274403,0.000193196410964512,0.0902824800909707,0.126132541479954,3.26192262341657,-0,-0,3.26438212797913,0
0.0120958038440111,-0.000967234078871116,0.00403486682388067,0.000207714732999794,0.0970413495101451,0.135483603559381,3.25847476503692,-0,-0,3.26131638859925,0
0.0122508782522677,-0.000966560831812053,0.0046631301784418,0.000223319537034682,0.10430069759364,0.145503561504413,3.25449266619886,-0,-0,3.25777541492263,0
0.0124059526605243,-0.000965782778833389,0.00538887735800401,0.000240091181878028,0.112096184161844,0.156234415830872,3.24989430746339,-0,-0,3.25368617812762,0
0.0125610270687808,-0.000964883666829342,0.00622711882316447,0.000258115702020427,0.12046566255264,0.167719315347256,3.24458534033803,-0,-0,3.24896464872933,0
0.0127161014770374,-0.000963844741252015,0.00719513912892688,0.00027748520570412,0.129449249985268,0.180002208309409,3.23845730344068,-0,-0,3.24351419689844,0
0.0128711758852939,-0.000962644371661648,0.00831282542133319,0.000298298164467967,0.13908933107794,0.19312728405309,3.23138564691951,-0,-0,3.23722381805487,0
0.0130262502935505,-0.000961257615516376,0.0096030459071865,0.000320659838576188,0.149430583104466,0.207138329680119,3.22322747246492,-0,-0,3.2299660992472,0
0.013181324701807,-0.000959655728664428,0.0110920689936107,0.000344682547477257,0.160519898488772,0.222077780564449,3.21381906417559,-0,-0,3.22159499189014,0
0.0133363991100636,-0.00095780559610218,0.0128100438010334,0.000370486096125918,0.17240632528297,0.237985616250112,3.20297308933284,-0,-0,3.21194328019496,0
0.0134914735183201,-0.000955669096288336,0.0147915261189969,0.000398198002296413,0.185140860132242,0.254897827581025,3.19047559153359,-0,-0,3.20081985118027,0
0.0136465479265767,-0.000953202365445192,0.0170760756513426,0.000427953878928792,0.198776243425112,0.272844613901443,3.17608263733826,-0,-0,3.18800663831452,0
0.0138016223348332,-0.000950354979754061,0.0197088999895808,0.000459897579316585,0.213366550089928,0.291847998443957,3.15951679756646,-0,-0,3.17325539365502,0
0.0139566967430898,-0.000947069016814822,0.022741574397047,0.000494181464671312,0.228966752071678,0.311919000851644,3.14046333325618,-0,-0,3.15628416683807,0
0.0141117711513463,-0.000943278017839788,0.0262328007386159,0.000530966401644292,0.245631997322813,0.333054041349802,3.11856634022155,-0,-0,3.13677370428486,0
0.0142668455596029,-0.000938905811026772,0.0302492352857482,0.000570421813645768,0.263416819745984,0.355230671956035,3.09342477583141,-0,-0,3.11436369359827,0
0.0144219199678594,-0.000933865221101288,0.0348663286748447,0.000612725420054753,0.282373949215205,0.378402320812904,3.06458872445694,-0,-0,3.08864914617866,0
0.014576994376116,-0.000928056629300485,0.0401692064039671,0.000658062931674189,0.302553006481149,0.402492103526895,3.03155593322743,-0,-0,3.05917693934581,0
0.0147320687843726,-0.00092136641653068,0.0462534978610881,0.000706627359025553,0.32399863629451,0.427385423786177,2.99376913924959,-0,-0,3.02544293882679,0
0.0148871431926291,-0.000913665262084227,0.0532261392074637,0.000758618158703265,0.346748474434778,0.452921421194472,2.95061438188987,-0,-0,2.98688986870796,0
0.0150422176008857,-0.00090480634958013,0.0612059998781679,0.000814239863436543,0.370830355433949,0.478883068533778,2.90142108403044,-0,-0,2.94290655749802,0
0.0151972920091422,-0.000894623464911328,0.0703243506530811,0.000873700414976663,0.396259295215453,0.504986082388175,2.84546429853147,-0,-0,2.89282891026411,0
0.0153523664173988,-0.000882929076359699,0.0807249380964421,0.000937208788394003,0.42303352019738,0.530866627478624,2.78197027428246,-0,-0,2.83594353600172,0
0.0155074408256553,-0.000869512400551657,0.0925636645926107,0.00100497216606609,0.451130209799732,0.55606825474975,2.71012593907449,-0,-0,2.77149456162123,0
0.0156625152339119,-0.000854137610121411,0.10600753254607,0.00107719215854046,0.48050016859093,0.580028419668315,2.6290938647877,-0,-0,2.69869490646951,0
0.0158175896421684,-0.000836542216654109,0.121232815104225,0.00115406041082288,0.511062192060419,0.602065537074981,2.53803339365705,-0,-0,2.61674262645693,0
0.015972664050425,-0.000816435883545758,0.138422001263388,0.00123575299147063,0.542696426922835,0.621367559285064,2.43612974203515,-0,-0,2.52484383116095,0
0.0161277384586815,-0.000793499743072191,0.157759435072676,0.00132242403700085,0.575237571254087,0.636983815739962,2.32263143516974,-0,-0,2.42224251442244,0
0.0162828128669381,-0.000767386612978416,0.179425103680935,0.00141419794043838,0.608467436025917,0.647821991840747,2.19689763745376,-0,-0,2.30825863528751,0
0.0164378872751946,-0.000737722209568642,0.203586511944489,0.00151116083631162,0.642107877478834,0.652652881631418,2.05845442584655,-0,-0,2.18233369142111,0
0.0165929616834512,-0.000704107969238983,0.23038803625102,0.00161335043923671,0.675813883440712,0.650125628321,1.90706050865088,-0,-0,2.0440843127819,0
0.0167480360917077,-0.000666125469809004,0.259937911738282,0.0017207456795141,0.709168143258162,0.638796532409254,1.74277829570524,-0,-0,1.89336043740098,0
0.0169031104999643,-0.000623343445442925,0.292292269058921,0.00183325454721994,0.741677211294043,0.617174203686036,1.566049091022,-0,-0,1.73030733611575,0
0.0170581849082208,-0.00057532697609042,0.327436794521047,0.00195070295073358,0.772770563047622,0.583783003863616,1.37776306188558,-0,-0,1.5554234022315,0
0.0172132593164774,-0.000521650327965899,0.365266001358583,0.00207282208623173,0.80180387269089,0.537245749813079,1.17932060795322,-0,-0,1.36961167759926,0
0.017368333724734,-0.000461912461560211,0.405560515956853,0.00219923834584277,0.82806555473431,0.476383975131332,0.97267151291333,-0,-0,1.17421272865905,0
0.0175234081329905,-0.0003957568903219,0.447964620109554,0.00232946295650553,0.850791783140905,0.400332133148126,0.760326316230956,-0,-0,0.971016264491002,0
0.0176784825412471,-0.000322894060034736,0.491963094533993,0.00246288633008365,0.869183618168907,0.308658163412993,0.54532671705141,-0,-0,0.762238054906446,0
0.0178335569495036,-0.000243128238707633,0.536861771456044,0.00259877345631595,0.882434286547227,0.201481574941946,0.331173235438435,-0,-0,0.550464295511531,0
0.0179886313577602,-0.000156386124224678,0.581771382680929,0.00273626582338741,0.889759173417119,0.0795758340014077,0.121703009795348,-0,-0,0.338555204687611,0
0.0180816256181588,-0.000101048980515295,0.60826207196242,0.0028190853409071,0.891004353715009,-1.95039400156568e-13,-2.85700790326776e-13,0,0,0.212661658180894,0
0.0180816256181588,-0.000101048980515295,0.60826207196242,0.0028190853409071,0,0,0,0,0,0.212661658180894,0
