Time,y,ydot,x,xdot,normal force on latch x,normal force on load y,frictional force on latch x,frictional force on load y,spring force,unlatching motor force
0,-0.000971550483036125,0,0,0,0,3.2840754398683,-0,-0,3.2840754398683,0.00125
0.000155074408256553,-0.000971550483033634,6.41351790296689e-11,4.99067655215981e-09,6.42549946478511e-05,3.27795165096427e-06,3.28407543216164,-0,-0,3.28407543985514,0.00123393625133804
0.000310148816513106,-0.000971550482996511,5.09610251780554e-10,1.99033508827303e-08,0.000128021219838589,1.30728210387239e-05,3.28407540912202,-0,-0,3.28407543965898,0.00121799469504035
0.00046522322476966,-0.000971550482836418,1.71281442549276e-09,4.46886300361738e-08,0.000191638726006804,2.93521658483205e-05,3.28407537033342,-0,-0,3.28407543881303,0.0012020903184983
0.000620297633026213,-0.00097155048240649,4.05384390990294e-09,7.93495023686258e-08,0.000255442301992011,5.21179483986468e-05,3.28407531467335,-0,-0,3.28407543654126,0.001186139424502
0.000775372041282766,-0.000971550481499999,7.92633230903164e-09,1.23940524432823e-07,0.000319763545574337,8.14060015371885e-05,3.28407524031017,-0,-0,3.2840754317513,0.00117005911360642
0.000930446449539319,-0.000971550479847486,1.37472892050801e-08,1.78567598973669e-07,0.000384932352658789,0.000117285882761843,3.28407514468348,-0,-0,3.28407542301929,0.0011537669118353
0.00108552085779587,-0.000971550477112366,2.19671529545947e-08,2.4338772478871e-07,0.00045127898187222,0.000159860709837525,3.2840750244678,-0,-0,3.28407540856672,0.00113718025453195
0.00124059526605243,-0.000971550472884937,3.3080274750946e-08,3.18609280376992e-07,0.000519135454005658,0.00020926734698354,3.28407487551938,-0,-0,3.28407538622866,0.00112021613649859
0.00139566967430898,-0.000971550466674717,4.7636062012847e-08,4.04492372745692e-07,0.000588837578488997,0.00026567663382272,3.28407469280496,-0,-0,3.28407535341339,0.00110279060537775
0.00155074408256553,-0.000971550457900984,6.62509792003733e-08,5.01349580999241e-07,0.000660726381133927,0.000329293873587645,3.2840744703123,-0,-0,3.28407530705232,0.00108481840471652
0.00170581849082209,-0.000971550445881383,8.9621688184892e-08,6.09546898098564e-07,0.000735150058170143,0.000400359451436753,3.28407420094003,-0,-0,3.28407524353985,0.00106621248545746
0.00186089289907864,-0.000971550429818375,1.18539528898381e-07,7.29504969333109e-07,0.000812465525389531,0.000479149647593066,3.28407387636603,-0,-0,3.2840751586617,0.00104688361865262
0.00201596730733519,-0.000971550408783336,1.53906669499799e-07,8.61700577363976e-07,0.000893040292980971,0.000565977612357082,3.28407348689134,-0,-0,3.28407504751098,0.00102673992675476
0.00217104171559175,-0.000971550381697986,1.96754199063805e-07,1.00666845500487e-06,0.000977254199721165,0.000661194556287303,3.28407302125734,-0,-0,3.28407490438996,0.00100568645006971
0.0023261161238483,-0.000971550347312864,2.48262487434424e-07,1.16500325980205e-06,0.00106550122760003,0.000765191046535004,3.28407246643315,-0,-0,3.2840747226964,0.000983624693099992
0.00248119053210485,-0.000971550304182395,3.09784275159645e-07,1.33736205580106e-06,0.00115819146630744,0.000878398636161122,3.28407180736858,-0,-0,3.28407449479178,0.000960452133423141
0.0026362649403614,-0.000971550250636237,3.82870721341407e-07,1.52446673455103e-06,0.0012557528966296,0.00100129145336455,3.28407102671031,-0,-0,3.28407421184991,0.0009360617758426
0.00279133934861796,-0.000971550184746164,4.69301230344431e-07,1.72710726842488e-06,0.00135863362666196,0.00113438833716568,3.28407010447277,-0,-0,3.28407386368188,0.000910341593334511
0.00294641375687451,-0.000971550104288246,5.71117060281519e-07,1.946144560646e-06,0.00146730368485594,0.00127825470792957,3.28406901766336,-0,-0,3.28407343853632,0.000883174078786015
0.00310148816513106,-0.000971550006699123,6.90660094798208e-07,2.18251455812354e-06,0.0015822575534035,0.00143350526698243,3.28406773984727,-0,-0,3.28407292286825,0.000854435611649125
0.00325656257338762,-0.000971549889026324,8.30616426938907e-07,2.43723155647562e-06,0.00170401603010009,0.00160080616523515,3.28406624065524,-0,-0,3.28407230107663,0.000823995992474978
0.00341163698164417,-0.000971549747870739,9.94066905712563e-07,2.71139324391693e-06,0.00183312907816315,0.00178087831340575,3.28406448521101,-0,-0,3.28407155520037,0.000791717730459212
0.00356671138990072,-0.000971549579321508,1.18454382477529e-06,3.00618451760773e-06,0.00197017781799371,0.00197449988535772,3.28406243348647,-0,-0,3.28407066457425,0.000757455545501573
0.00372178579815728,-0.000971549378880501,1.4060969062123e-06,3.32288353967613e-06,0.0021157777257511,0.00218251029171231,3.28406003955051,-0,-0,3.28406960542991,0.000721055568562226
0.00387686020641383,-0.000971549141377116,1.66336715324433e-06,3.66286613079359e-06,0.00227058080682524,0.00240581306061011,3.28405725072556,-0,-0,3.28406835044564,0.00068235479829369
0.00403193461467038,-0.000971548860869263,1.9616730317549e-06,4.02761293883448e-06,0.00243527919032157,0.00264538054001539,3.2840540066037,-0,-0,3.28406686822318,0.000641180202419608
0.00418700902292694,-0.000971548530531972,2.30710676649784e-06,4.4187144873985e-06,0.002610607533198,0.00290225720608381,3.28405023794449,-0,-0,3.28406512269913,0.0005973481167005
0.00434208343118349,-0.000971548142527701,2.70664691395011e-06,4.83787957340647e-06,0.00279734706692824,0.00317756516948128,3.28404586538754,-0,-0,3.28406307245969,0.000550663233267939
0.00449715783944004,-0.000971547687860757,3.16828398481034e-06,5.28694106870828e-06,0.00299632828553786,0.00347250797451936,3.28404079801293,-0,-0,3.28406066997143,0.000500917928615535
0.0046522322476966,-0.000971547156207577,3.70116746445177e-06,5.76786567190323e-06,0.00320843550487938,0.00378837699018445,3.28403493165805,-0,-0,3.28405786068452,0.000447891123780155
0.00480730665595315,-0.0009715465357265,4.31576975166553e-06,6.28276059285304e-06,0.00343460989858426,0.00412655578336425,3.28402814703757,-0,-0,3.28405458202763,0.000391347525353936
0.0049623810642097,-0.000971545812835819,5.02407809864989e-06,6.83388478492224e-06,0.00367585463033003,0.00448852747508516,3.28402030754441,-0,-0,3.28405076223519,0.000331036342417492
0.00511745547246626,-0.000971544971965228,5.83980862535839e-06,7.42365668647353e-06,0.00393323831857626,0.0048758797992552,3.28401125679449,-0,-0,3.28404631903417,0.000266690420355934
0.00527252988072281,-0.000971543995265784,6.77865677975984e-06,8.05466705233897e-06,0.00420790079840589,0.00529031349857218,3.28400081575572,-0,-0,3.28404115811159,0.000198024800398527
0.00542760428897936,-0.000971542862285088,7.85857682610083e-06,8.72968798369357e-06,0.00450105711860983,0.00573364821640954,3.28398877954083,-0,-0,3.28403517139835,0.000124735720347542
0.00558267869723591,-0.000971541549588937,9.10010811326989e-06,9.45168726066949e-06,0.00481400389328913,0.00620783186263831,3.28397491366583,-0,-0,3.28402823507027,4.64990266777164e-05
0.00573775310549247,-0.000971540030315902,1.05276109324666e-05,1.02238492245288e-05,0.00514854468842062,0.00671495393824516,3.28395878737523,-0,-0,3.28402020719476,0
0.00589282751374902,-0.000971538273029657,1.21759255922084e-05,1.10498830579034e-05,0.0055095134467842,0.00725744817006939,3.28393993372659,-0,-0,3.28401092166689,0
0.00604790192200557,-0.000971536240698474,1.40811044658726e-05,1.19341180513815e-05,0.00589949935792437,0.00783815565188344,3.28391812926813,-0,-0,3.28400018281763,0
0.00620297633026213,-0.000971533890447074,1.62833380783528e-05,1.28812117131423e-05,0.00632055601771999,0.00846013204892998,3.2838929140492,-0,-0,3.2839877641034,0
0.00635805073851868,-0.000971531172696553,1.88290798495463e-05,1.38961513678052e-05,0.00677489998201387,0.00912664881326522,3.28386375621682,-0,-0,3.28397340356241,0
0.00651312514677524,-0.000971528030112007,2.17720318407248e-05,1.49842830007139e-05,0.00726492354373305,0.00984121192411228,3.28383004073219,-0,-0,3.28395679825535,0
0.00666819955503179,-0.00097152439640236,2.51742685863656e-05,1.61513360791123e-05,0.00779320581302778,0.0106075779366342,3.28379105650344,-0,-0,3.28393759792544,0
0.00682327396328834,-0.000971520194910489,2.91075567608793e-05,1.74034576735093e-05,0.00836252800571862,0.0114297760764256,3.28374598127261,-0,-0,3.28391539755121,0
0.00697834837154489,-0.000971515337011525,3.36548541687235e-05,1.87472400837095e-05,0.00897588590416071,0.0123121259920984,3.28369386444793,-0,-0,3.28388972888643,0
0.00713342277980145,-0.000971509720225615,3.89120753791383e-05,2.01897608576742e-05,0.00963650793596121,0.0132592635503941,3.28363360687969,-0,-0,3.2838600504924,0
0.007288497188058,-0.000971503226079283,4.49900923735921e-05,2.17386139207497e-05,0.0103478693072695,0.0142761606758002,3.28356393794542,-0,-0,3.28382573644345,0
0.00744357159631455,-0.000971495717581156,5.2017095257887e-05,2.34019561241939e-05,0.0111137131515542,0.0153681551672868,3.28348338850974,-0,-0,3.28378606299675,0
0.00759864600457111,-0.000971487036364678,6.01412641494968e-05,2.51885428120137e-05,0.0119380667325081,0.0165409731220807,3.28339026032387,-0,-0,3.28374019350521,0
0.00775372041282766,-0.000971476999314614,6.95339229220651e-05,2.71077814520719e-05,0.0128252658969377,0.0178007629917829,3.28328258990745,-0,-0,3.28368716060651,0
0.00790879482108421,-0.00097146539474695,8.03931099414274e-05,2.91697729119161e-05,0.0137799738931374,0.0191541212451673,3.28315810766242,-0,-0,3.28362584605711,0
0.00806386922934077,-0.000971451977905356,9.29477864860259e-05,3.13853724597199e-05,0.0148072092243832,0.0206081306281133,3.28301418968993,-0,-0,3.28355495696164,0
0.00821894363759732,-0.000971436465848437,0.000107462613367762,3.37662387150754e-05,0.0159123679361411,0.0221703900781541,3.28284780311505,-0,-0,3.28347299879209,0
0.00837401804585387,-0.000971418531445879,0.000124243558471623,3.63249018063799e-05,0.0171012547132032,0.0238490567025214,3.28265544191246,-0,-0,3.28337824371011,0
0.00852909245411042,-0.000971397796528749,0.000143644292099871,3.90748225919528e-05,0.0183801097564548,0.0256528812187224,3.28243305373801,-0,-0,3.28326869443581,0
0.00868416686236698,-0.000971373823894519,0.000166073649194867,4.20304676111452e-05,0.0197556428643169,0.0275912528800232,3.28217595458029,-0,-0,3.28314204208596,0
0.00883924127062353,-0.000971346108126011,0.000192004194398473,4.52073813888357e-05,0.0212350660812543,0.0296742416254375,3.28187873083405,-0,-0,3.28299561777328,0
0.00899431567888009,-0.000971314064951803,0.000221982143797093,4.86222680436212e-05,0.0228261305580515,0.0319126450426347,3.28153512591437,-0,-0,3.28282633653652,0
0.00914939008713664,-0.000971277018941921,0.000256638831397889,5.22930794601667e-05,0.0245371660787595,0.0343180380321441,3.28113790927601,-0,-0,3.2826306325249,0
0.00930446449539319,-0.000971234189352153,0.000296703893861487,5.62391038159765e-05,0.0263771205991086,0.0369028207164287,3.28067872590488,-0,-0,3.28240438446711,0
0.00945953890364975,-0.000971184673644767,0.000343020606000134,6.04810722215878e-05,0.0283556075784885,0.0396802757493094,3.28014792135604,-0,-0,3.28214282895292,0
0.0096146133119063,-0.000971127428653832,0.000396563395046644,6.50412549688167e-05,0.0304829482195823,0.0426646157554792,3.27953434211868,-0,-0,3.28184046138915,0
0.00976968772016285,-0.000971061248538472,0.000458458318887871,6.99435888851783e-05,0.0327702272266405,0.0458710473370358,3.27882510236726,-0,-0,3.28149092014457,0
0.00992476212841941,-0.000970984739717826,0.000530006322624766,7.52137827628115e-05,0.0352293378720779,0.0493158160164176,3.27800531939997,-0,-0,3.28108685496049,0
0.010079836536676,-0.000970896291418914,0.000612710527494761,8.08794671436586e-05,0.0378730463436678,0.0530162743498509,3.27705780351175,-0,-0,3.28061977246839,0
0.0102349109449325,-0.000970794042314591,0.000708307093706804,8.69703110997056e-05,0.0407150397811671,0.0569909212210787,3.27596270783937,-0,-0,3.28007986142957,0
0.0103899853531891,-0.000970675841248118,0.000818801490665096,9.35181954584909e-05,0.0437699987179769,0.0612594690371105,3.27469711741766,-0,-0,3.27945578724273,0
0.0105450597614456,-0.000970539202828425,0.000946509410478362,0.000100557343786225,0.0470536480778318,0.0658428722433173,3.2732345866534,-0,-0,3.27873446002875,0
0.0107001341697022,-0.000970381255163829,0.00109410482022487,0.00010812451909324,0.0505828362441733,0.070763384955885,3.2715445971358,-0,-0,3.27790076209082,0
0.0108552085779587,-0.000970198680776294,0.0012646741083302,0.000116259172665893,0.0543755886729102,0.076044570421109,3.26959194846325,-0,-0,3.27693724055157,0
0.0110102829862153,-0.000969987647233437,0.00146177947700249,0.000125003662230878,0.0584511904156464,0.0817113346025184,3.26733604699544,-0,-0,3.2758237472866,0
0.0111653573944718,-0.000969743728560907,0.00168953043503742,0.000134403424027961,0.0628302416369674,0.0877899039353814,3.26473010675538,-0,-0,3.27453703229495,0
0.0113204318027284,-0.000969461813481149,0.00195266697427209,0.000144507207464711,0.0675347380004107,0.0943078117754068,3.26172022344895,-0,-0,3.27305027034696,0
0.0114755062109849,-0.000969136001023094,0.00225665359841342,0.000155367275856026,0.0725881256552048,0.101293823633997,3.25824433276342,-0,-0,3.27133252472358,0
0.0116305806192415,-0.000968759479562383,0.00260778775536516,0.000167039651092279,0.0780153714817245,0.108777842570459,3.25423101617661,-0,-0,3.26934812850881,0
0.011785655027498,-0.000968324388535866,0.0030133227312282,0.000179584345968308,0.0838430115446,0.116790747499976,3.24959815603681,-0,-0,3.26705598110504,0
0.0119407294357546,-0.000967821659607626,0.00348160787321539,0.000193065611025965,0.0900991998141555,0.125364168496157,3.24425141434412,-0,-0,3.26440874517348,0
0.0120958038440111,-0.000967240834282943,0.00402224772780239,0.000207552196951619,0.0968137387087779,0.134530183789746,3.23808252083478,-0,-0,3.26135193107825,0
0.0122508782522677,-0.00096656985632463,0.00464628143972842,0.000223117593372884,0.104018089539033,0.144320894373843,3.2309673677902,-0,-0,3.25782286399709,0
0.0124059526605243,-0.000965794832703691,0.00536638613220691,0.000239840313153543,0.111745366183503,0.154767897399209,3.22276387540027,-0,-0,3.25374950576109,0
0.0125610270687808,-0.000964899763989031,0.0061971030142477,0.000257804108592341,0.120030282097312,0.165901559613219,3.21330966339861,-0,-0,3.24904914283154,0
0.0127161014770374,-0.000963866233702087,0.00715509252937117,0.000277098259923363,0.128909077746396,0.177750147756572,3.20241946872477,-0,-0,3.24362689407658,0
0.0128711758852939,-0.000962673061139892,0.00825941322721314,0.000297817746856705,0.13841936645927,0.190338661347233,3.18988240345972,-0,-0,3.23737407342902,0
0.0130262502935505,-0.000961295902332821,0.00953183345102921,0.000320063510272018,0.148599952113723,0.203687454984134,3.17545897253799,-0,-0,3.23016634183256,0
0.013181324701807,-0.000959706808352313,0.0109971643460504,0.000343942544922991,0.159490518701532,0.217810445061053,3.15887803148775,-0,-0,3.22186171614463,0
0.0133363991100636,-0.000957873720726785,0.0126836257416838,0.000369568084750483,0.171131275625788,0.232713009901154,3.13983359728291,-0,-0,3.21229835396888,0
0.0134914735183201,-0.000955759919062653,0.0146232242340671,0.000397059564579577,0.183562414092059,0.248389341934887,3.11798181512428,-0,-0,3.20129222551872,0
0.0136465479265767,-0.000953323396802332,0.0168521562224614,0.000426542653981238,0.196823493791333,0.264819375184293,3.09293801691315,-0,-0,3.18863458779883,0
0.0138016223348332,-0.000950516187339575,0.0194112017076798,0.000458149010006628,0.210952562312546,0.281965038604612,3.06427434385301,-0,-0,3.17408942889087,0
0.0139566967430898,-0.000947283615209704,0.0223461209722499,0.00049201605399632,0.22598517587805,0.299765974460387,3.03151793301444,-0,-0,3.15739081588213,0
0.0141117711513463,-0.000943563504100381,0.0257079986394252,0.000528286398052693,0.241953047536111,0.318134508539349,2.99415037891956,-0,-0,3.13824039195084,0
0.0142668455596029,-0.000939285318128092,0.0295535467951705,0.000567107228144544,0.258882582744068,0.336950059286468,2.95160855678082,-0,-0,3.11630499928506,0
0.0144219199678594,-0.000934369284004421,0.0339452767013514,0.000608629237512958,0.276792909433555,0.356052869625467,2.9032878583628,-0,-0,3.09121479200942,0
0.014576994376116,-0.000928725473469068,0.0389515544281834,0.000653005447317364,0.295693814260076,0.375237377581719,2.84854797347458,-0,-0,3.06256187220964,0
0.0147320687843726,-0.000922252922092504,0.0446463974347266,0.000700389434472863,0.315583042513394,0.394245293946638,2.78672270348724,-0,-0,3.02989999725434,0
0.0148871431926291,-0.000914838764798159,0.0511090392850811,0.000750933394778898,0.336443573753229,0.412758960055972,2.71713382920963,-0,-0,2.99274543259104,0
0.0150422176008857,-0.000906357511506114,0.0584230534969104,0.000804785432126598,0.358240201067505,0.430395357327617,2.63911093513317,-0,-0,2.95057975560155,0
0.0151972920091422,-0.000896670437946437,0.0666750886517888,0.000862086671828445,0.380916235391802,0.446701734977275,2.5520167527511,-0,-0,2.90285465682451,0
0.0153523664173988,-0.000885625284423042,0.0759529440772792,0.000922967413495262,0.404389627546936,0.461153636619932,2.45528003713598,-0,-0,2.84899983930304,0
0.0155074408256553,-0.000873056217966818,0.0863430860286236,0.00098754317902638,0.428549495687021,0.473156728425732,2.34843444535383,-0,-0,2.78843386431511,0
0.0156625152339119,-0.000858784341448325,0.097927309835983,0.00105590966147176,0.453252472021669,0.482053565428729,2.2311648358704,-0,-0,2.72057928532392,0
0.0158175896421684,-0.000842618650509034,0.110778737260819,0.00112813780533768,0.478319916370943,0.487136896031778,2.10335742338827,-0,-0,2.64488136265584,0
0.015972664050425,-0.000824357835050271,0.12495691767406,0.00120426774607537,0.503535738418549,0.487670530572919,1.96515363285067,-0,-0,2.56083178375576,0
0.0161277384586815,-0.000803792689369373,0.140502349257166,0.00128430341404653,0.528645625904141,0.482918857220555,1.81700123084064,-0,-0,2.46799548161381,0
0.0162828128669381,-0.000780709669160075,0.157430444392668,0.00136820609650726,0.553358203679482,0.472184789616218,1.65970011705674,-0,-0,2.36604187709267,0
0.0164378872751946,-0.000754895110978284,0.175725267416391,0.00145588947737694,0.577347749915956,0.454855655457439,1.49443442639715,-0,-0,2.25477674393458,0
0.0165929616834512,-0.000726140706770283,0.195333678297894,0.00154721420765567,0.600260515063654,0.430453992112383,1.32278538584901,-0,-0,2.13417539309667,0
0.0167480360917077,-0.000694249554757166,0.216160009289167,0.00164198461562988,0.62172243606652,0.39869026817227,1.14671851458187,-0,-0,2.00441192813996,0
0.0169031104999643,-0.000659043240370194,0.23806219471271,0.00173994587557793,0.64135030242836,0.359511747165183,0.968540880878588,-0,-0,1.86588417693174,0
0.0170581849082208,-0.000620368973500762,0.260850263152773,0.00184078424664981,0.658765702061049,0.313140939771442,0.790823472973742,-0,-0,1.71922812717549,0
0.0172132593164774,-0.000578107267995372,0.284286435890622,0.00194412823315386,0.673608658004705,0.260099442629351,0.616298262519772,-0,-0,1.56532227163209,0
0.017368333724734,-0.000532178852652795,0.308089271038383,0.00204955333530201,0.685554577024522,0.201208679626009,0.447725851633069,-0,-0,1.40527613494259,0
0.0175234081329905,-0.000482551240315582,0.331939655909322,0.00215658808487485,0.69432825381901,0.137568191790238,0.287755562453338,-0,-0,1.24040532042143,0
0.0176784825412471,-0.000429243624512247,0.355490401551483,0.00226472335097176,0.699717748826443,0.0705080507406876,0.13878218461904,-0,-0,1.07219043852751,0
0.0178335569495036,-0.000372330609835555,0.37837747184904,0.00237342248147421,0.701584345618731,0.00152135250157517,0.00282087909213282,-0,-0,0.902225308224922,0
0.0178369548679583,-0.000371044078518779,0.378868748415849,0.00237580641115961,0.701585206755331,-1.45971635081599e-16,-2.70308755228155e-16,0,0,0.898493905275599,0
0.0178369548679583,-0.000371044078518779,0.378868748415849,0.00237580641115961,0,0,0,0,0,0.898493905275599,0
0.0178415607085942,-0.000369297539535086,0.379532457218153,0.00237580641115961,0,0,0,0,0,0.893435990884091,0
